{
  "AcquisitionMatrixPE": 80,
  "AcquisitionNumber": 1,
  "AcquisitionTime": "09:34:36.162500",
  "BandwidthPerPixelPhaseEncode": 48.077,
  "BaseResolution": 80,
  "BodyPartExamined": "BRAIN",
  "ConsistencyInfo": "N4_VE11C_LATEST_20160120",
  "ConversionSoftware": "dcm2niix",
  "ConversionSoftwareVersion": "v1.0.20190902",
  "DerivedVendorReportedEchoSpacing": 0.000519999,
  "DeviceSerialNumber": "66112",
  "DwellTime": 2.7e-06,
  "EchoTime": 0.032,
  "EchoTrainLength": 39,
  "EffectiveEchoSpacing": 0.00026,
  "FlipAngle": 75,
  "ImageOrientationPatientDICOM": [0.998959, -0.0269188, -0.0368265, 0.0331389, 0.983042, 0.180361],
  "ImageType": [
    "ORIGINAL",
    "PRIMARY",
    "M",
    "ND",
    "NORM",
    "MOSAIC"
],
  "ImagingFrequency": 123.252,
  "InPlanePhaseEncodingDirectionDICOM": "COL",
  "InstitutionAddress": "Maynard_3_Hanover_NH_US_03755",
  "InstitutionName": "Dartmouth_College_-_PBS",
  "InstitutionalDepartmentName": "Department",
  "MRAcquisitionType": "2D",
  "MagneticFieldStrength": 3,
  "Manufacturer": "Siemens",
  "ManufacturersModelName": "Prisma",
  "Modality": "MR",
  "ParallelReductionFactorInPlane": 2,
  "PartialFourier": 1,
  "PatientPosition": "HFS",
  "PercentPhaseFOV": 100,
  "PhaseEncodingDirection": "j-",
  "PhaseEncodingSteps": 79,
  "PhaseResolution": 1,
  "PixelBandwidth": 2315,
  "ProcedureStepDescription": "Psych60_1071_Psych60_Pinel_Movie",
  "ProtocolName": "func_run-03_task-pinel_acq-s1p2",
  "PulseSequenceDetails": "%SiemensSeq%_ep2d_bold",
  "ReceiveCoilActiveElements": "HEA;HEP",
  "ReceiveCoilName": "Head_32",
  "ReconMatrixPE": 80,
  "RefLinesPE": 24,
  "RepetitionTime": 2,
  "SAR": 0.082589,
  "ScanOptions": "FS",
  "ScanningSequence": "EP",
  "SequenceName": "_epfid2d1_80",
  "SequenceVariant": "SK",
  "SeriesDescription": "func_run-03_task-pinel_acq-s1p2",
  "SeriesNumber": 6,
  "ShimSetting": [4127, -7755, -7287, 421, -5, -83, 70, 108],
  "SliceThickness": 3,
  "SliceTiming": [0.99, 0, 1.0475, 0.0575, 1.105, 0.115, 1.165, 0.175, 1.2225, 0.2325, 1.28, 0.29, 1.3375, 0.35, 1.3975, 0.4075, 1.455, 0.465, 1.5125, 0.5225, 1.5725, 0.5825, 1.63, 0.64, 1.6875, 0.6975, 1.7475, 0.7575, 1.805, 0.815, 1.8625, 0.8725, 1.92, 0.93],
  "SoftwareVersions": "syngo_MR_E11",
  "SpacingBetweenSlices": 3,
  "StationName": "AWP66112",
  "TaskName": "pinel",
  "TotalReadoutTime": 0.02054,
  "TxRefAmp": 239.056,
  "dcmmeta_affine": [
    [-2.9968771934509277, 0.09941677004098892, -0.09404050558805466, 118.66644287109375],
    [0.0807565376162529, 2.9491260051727295, 0.5441821217536926, -101.67779541015625],
    [-0.11047937721014023, -0.5410842299461365, 2.9487321376800537, -18.075681686401367],
    [0.0, 0.0, 0.0, 1.0]
],
  "dcmmeta_reorient_transform": [
    [0.0, -1.0, 0.0, 79.0],
    [1.0, 0.0, 0.0, 0.0],
    [0.0, 0.0, 1.0, 0.0],
    [0.0, 0.0, 0.0, 1.0]
],
  "dcmmeta_shape": [80, 80, 34, 150],
  "dcmmeta_slice_dim": 2,
  "dcmmeta_version": 0.6,
  "global": {
    "const": {
      "AccessionNumber": "A003285",
      "AcquisitionMatrix": [80, 0, 0, 80],
      "AngioFlag": "N",
      "BitsAllocated": 16,
      "BitsStored": 12,
      "BodyPartExamined": "BRAIN",
      "Columns": 480,
      "EchoNumbers": 1,
      "EchoTime": 32.0,
      "EchoTrainLength": 39,
      "FlipAngle": 75.0,
      "HighBit": 11,
      "ImageOrientationPatient": [0.9989590520024, -0.0269188455127, -0.0368264603068, 0.03313892362917, 0.98304200160668, 0.18036140057626],
      "ImagePositionPatient": [-745.7791499281, -704.97704892878, -146.94229825991],
      "ImageType": [
        "ORIGINAL",
        "PRIMARY",
        "M",
        "ND",
        "NORM",
        "MOSAIC"
],
      "ImagedNucleus": "1H",
      "ImagingFrequency": 123.252191,
      "InPlanePhaseEncodingDirection": "COL",
      "MRAcquisitionType": "2D",
      "MagneticFieldStrength": 3.0,
      "Manufacturer": "SIEMENS",
      "ManufacturerModelName": "Prisma",
      "Modality": "MR",
      "NumberOfAverages": 1.0,
      "NumberOfPhaseEncodingSteps": 79,
      "PercentPhaseFieldOfView": 100.0,
      "PercentSampling": 100.0,
      "PerformedProcedureStepStartTime": "091502.712000",
      "PhotometricInterpretation": "MONOCHROME2",
      "PixelBandwidth": 2315.0,
      "PixelRepresentation": 0,
      "PixelSpacing": [3.0, 3.0],
      "ProtocolName": "func_run-03_task-pinel_acq-s1p2",
      "RepetitionTime": 2000.0,
      "Rows": 480,
      "SAR": 0.08258899478323,
      "SamplesPerPixel": 1,
      "ScanOptions": "FS",
      "ScanningSequence": "EP",
      "SequenceName": "*epfid2d1_80",
      "SequenceVariant": "SK",
      "SeriesDescription": "func_run-03_task-pinel_acq-s1p2",
      "SeriesNumber": 6,
      "SeriesTime": "093519.857000",
      "SliceLocation": -39.930347181175,
      "SliceThickness": 3.0,
      "SmallestImagePixelValue": 0,
      "SoftwareVersions": "syngo MR E11",
      "SpacingBetweenSlices": 2.9999998991147,
      "SpecificCharacterSet": "ISO_IR 100",
      "StudyID": "1",
      "StudyTime": "091502.594000",
      "TransmitCoilName": "Body",
      "VariableFlipAngleFlag": "N",
      "WindowCenterWidthExplanation": "Algo1",
      "dBdt": 0.0},
    "slices": {}
  },
  "time": {
    "samples": {
      "AcquisitionNumber": [1, 2, 3, 4, 5, 6, 7, 8, 9, 10, 11, 12, 13, 14, 15, 16, 17, 18, 19, 20, 21, 22, 23, 24, 25, 26, 27, 28, 29, 30, 31, 32, 33, 34, 35, 36, 37, 38, 39, 40, 41, 42, 43, 44, 45, 46, 47, 48, 49, 50, 51, 52, 53, 54, 55, 56, 57, 58, 59, 60, 61, 62, 63, 64, 65, 66, 67, 68, 69, 70, 71, 72, 73, 74, 75, 76, 77, 78, 79, 80, 81, 82, 83, 84, 85, 86, 87, 88, 89, 90, 91, 92, 93, 94, 95, 96, 97, 98, 99, 100, 101, 102, 103, 104, 105, 106, 107, 108, 109, 110, 111, 112, 113, 114, 115, 116, 117, 118, 119, 120, 121, 122, 123, 124, 125, 126, 127, 128, 129, 130, 131, 132, 133, 134, 135, 136, 137, 138, 139, 140, 141, 142, 143, 144, 145, 146, 147, 148, 149, 150],
      "AcquisitionTime": ["093436.162500", "093438.162500", "093440.162500", "093442.162500", "093444.162500", "093446.162500", "093448.162500", "093450.162500", "093452.162500", "093454.162500", "093456.162500", "093458.162500", "093500.162500", "093502.162500", "093504.162500", "093506.162500", "093508.162500", "093510.162500", "093512.162500", "093514.162500", "093516.162500", "093518.162500", "093520.162500", "093522.162500", "093524.162500", "093526.162500", "093528.162500", "093530.162500", "093532.162500", "093534.162500", "093536.162500", "093538.162500", "093540.162500", "093542.162500", "093544.162500", "093546.162500", "093548.162500", "093550.162500", "093552.162500", "093554.162500", "093556.162500", "093558.162500", "093600.162500", "093602.162500", "093604.162500", "093606.162500", "093608.162500", "093610.162500", "093612.162500", "093614.162500", "093616.162500", "093618.162500", "093620.162500", "093622.162500", "093624.162500", "093626.162500", "093628.162500", "093630.162500", "093632.162500", "093634.162500", "093636.162500", "093638.162500", "093640.162500", "093642.162500", "093644.162500", "093646.162500", "093648.162500", "093650.162500", "093652.162500", "093654.162500", "093656.162500", "093658.162500", "093700.162500", "093702.162500", "093704.162500", "093706.162500", "093708.162500", "093710.162500", "093712.162500", "093714.162500", "093716.162500", "093718.162500", "093720.162500", "093722.162500", "093724.162500", "093726.162500", "093728.162500", "093730.162500", "093732.162500", "093734.162500", "093736.162500", "093738.162500", "093740.162500", "093742.162500", "093744.162500", "093746.162500", "093748.162500", "093750.162500", "093752.162500", "093754.162500", "093756.162500", "093758.162500", "093800.162500", "093802.162500", "093804.162500", "093806.162500", "093808.162500", "093810.162500", "093812.162500", "093814.162500", "093816.162500", "093818.162500", "093820.162500", "093822.162500", "093824.162500", "093826.162500", "093828.162500", "093830.162500", "093832.162500", "093834.162500", "093836.162500", "093838.162500", "093840.162500", "093842.162500", "093844.162500", "093846.162500", "093848.162500", "093850.162500", "093852.162500", "093854.162500", "093856.162500", "093858.162500", "093900.162500", "093902.162500", "093904.162500", "093906.162500", "093908.162500", "093910.162500", "093912.162500", "093914.162500", "093916.162500", "093918.162500", "093920.162500", "093922.162500", "093924.162500", "093926.162500", "093928.162500", "093930.162500", "093932.162500", "093934.162500"],
      "ContentTime": ["093519.861000", "093519.864000", "093519.867000", "093519.870000", "093519.872000", "093519.875000", "093519.883000", "093519.886000", "093519.889000", "093519.896000", "093519.899000", "093519.901000", "093519.911000", "093519.919000", "093519.922000", "093519.924000", "093519.927000", "093519.930000", "093519.932000", "093519.935000", "093519.938000", "093559.856000", "093559.859000", "093559.861000", "093559.864000", "093559.866000", "093559.869000", "093559.872000", "093559.874000", "093559.877000", "093559.879000", "093559.882000", "093559.885000", "093559.887000", "093559.890000", "093559.892000", "093559.895000", "093559.898000", "093559.900000", "093559.903000", "093559.906000", "093639.856000", "093639.859000", "093639.861000", "093639.864000", "093639.866000", "093639.869000", "093639.872000", "093639.874000", "093639.877000", "093639.880000", "093639.892000", "093639.894000", "093639.897000", "093639.900000", "093639.902000", "093639.905000", "093639.908000", "093639.910000", "093639.913000", "093639.916000", "093719.857000", "093719.860000", "093719.862000", "093719.865000", "093719.867000", "093719.870000", "093719.873000", "093719.875000", "093719.878000", "093719.881000", "093719.883000", "093719.886000", "093719.888000", "093719.891000", "093719.894000", "093719.896000", "093719.899000", "093719.902000", "093719.913000", "093719.915000", "093759.856000", "093759.859000", "093759.861000", "093759.864000", "093759.867000", "093759.880000", "093759.882000", "093759.885000", "093759.888000", "093759.890000", "093759.893000", "093759.895000", "093759.898000", "093759.901000", "093759.903000", "093759.906000", "093759.908000", "093759.911000", "093759.914000", "093759.916000", "093839.856000", "093839.858000", "093839.861000", "093839.864000", "093839.866000", "093839.869000", "093839.872000", "093839.874000", "093839.877000", "093839.879000", "093839.882000", "093839.885000", "093839.887000", "093839.890000", "093839.893000", "093839.895000", "093839.898000", "093839.901000", "093839.903000", "093839.906000", "093919.856000", "093919.859000", "093919.869000", "093919.872000", "093919.875000", "093919.886000", "093919.889000", "093919.892000", "093919.894000", "093919.897000", "093919.900000", "093919.902000", "093919.905000", "093919.908000", "093919.910000", "093919.913000", "093919.916000", "093919.918000", "093919.921000", "093919.924000", "093936.048000", "093936.051000", "093936.059000", "093936.061000", "093936.064000", "093936.067000", "093936.069000", "093936.072000", "093936.075000"],
      "InstanceCreationTime": ["093519.861000", "093519.864000", "093519.867000", "093519.870000", "093519.872000", "093519.875000", "093519.883000", "093519.886000", "093519.889000", "093519.896000", "093519.899000", "093519.901000", "093519.911000", "093519.919000", "093519.922000", "093519.924000", "093519.927000", "093519.930000", "093519.932000", "093519.935000", "093519.938000", "093559.856000", "093559.859000", "093559.861000", "093559.864000", "093559.866000", "093559.869000", "093559.872000", "093559.874000", "093559.877000", "093559.879000", "093559.882000", "093559.885000", "093559.887000", "093559.890000", "093559.892000", "093559.895000", "093559.898000", "093559.900000", "093559.903000", "093559.906000", "093639.856000", "093639.859000", "093639.861000", "093639.864000", "093639.866000", "093639.869000", "093639.872000", "093639.874000", "093639.877000", "093639.880000", "093639.892000", "093639.894000", "093639.897000", "093639.900000", "093639.902000", "093639.905000", "093639.908000", "093639.910000", "093639.913000", "093639.916000", "093719.857000", "093719.860000", "093719.862000", "093719.865000", "093719.867000", "093719.870000", "093719.873000", "093719.875000", "093719.878000", "093719.881000", "093719.883000", "093719.886000", "093719.888000", "093719.891000", "093719.894000", "093719.896000", "093719.899000", "093719.902000", "093719.913000", "093719.915000", "093759.856000", "093759.859000", "093759.861000", "093759.864000", "093759.867000", "093759.880000", "093759.882000", "093759.885000", "093759.888000", "093759.890000", "093759.893000", "093759.895000", "093759.898000", "093759.901000", "093759.903000", "093759.906000", "093759.908000", "093759.911000", "093759.914000", "093759.916000", "093839.856000", "093839.858000", "093839.861000", "093839.864000", "093839.866000", "093839.869000", "093839.872000", "093839.874000", "093839.877000", "093839.879000", "093839.882000", "093839.885000", "093839.887000", "093839.890000", "093839.893000", "093839.895000", "093839.898000", "093839.901000", "093839.903000", "093839.906000", "093919.856000", "093919.859000", "093919.869000", "093919.872000", "093919.875000", "093919.886000", "093919.889000", "093919.892000", "093919.894000", "093919.897000", "093919.900000", "093919.902000", "093919.905000", "093919.908000", "093919.910000", "093919.913000", "093919.916000", "093919.918000", "093919.921000", "093919.924000", "093936.048000", "093936.051000", "093936.059000", "093936.061000", "093936.064000", "093936.067000", "093936.069000", "093936.072000", "093936.075000"],
      "InstanceNumber": [1, 2, 3, 4, 5, 6, 7, 8, 9, 10, 11, 12, 13, 14, 15, 16, 17, 18, 19, 20, 21, 22, 23, 24, 25, 26, 27, 28, 29, 30, 31, 32, 33, 34, 35, 36, 37, 38, 39, 40, 41, 42, 43, 44, 45, 46, 47, 48, 49, 50, 51, 52, 53, 54, 55, 56, 57, 58, 59, 60, 61, 62, 63, 64, 65, 66, 67, 68, 69, 70, 71, 72, 73, 74, 75, 76, 77, 78, 79, 80, 81, 82, 83, 84, 85, 86, 87, 88, 89, 90, 91, 92, 93, 94, 95, 96, 97, 98, 99, 100, 101, 102, 103, 104, 105, 106, 107, 108, 109, 110, 111, 112, 113, 114, 115, 116, 117, 118, 119, 120, 121, 122, 123, 124, 125, 126, 127, 128, 129, 130, 131, 132, 133, 134, 135, 136, 137, 138, 139, 140, 141, 142, 143, 144, 145, 146, 147, 148, 149, 150],
      "LargestImagePixelValue": [840, 703, 661, 649, 654, 674, 783, 685, 745, 766, 704, 720, 682, 698, 683, 641, 683, 690, 692, 692, 691, 732, 684, 678, 641, 732, 664, 679, 656, 710, 774, 689, 691, 707, 728, 654, 720, 681, 694, 714, 663, 689, 692, 663, 668, 671, 659, 813, 682, 679, 731, 669, 688, 667, 665, 701, 708, 683, 681, 713, 652, 724, 784, 678, 844, 673, 744, 650, 655, 702, 685, 678, 752, 653, 760, 734, 660, 680, 688, 675, 666, 699, 662, 700, 646, 651, 718, 683, 727, 732, 669, 669, 655, 663, 674, 664, 673, 668, 672, 702, 651, 650, 742, 700, 707, 670, 680, 649, 677, 642, 709, 748, 703, 654, 801, 659, 656, 730, 664, 687, 678, 697, 669, 684, 685, 704, 739, 660, 678, 654, 652, 677, 681, 679, 682, 687, 686, 704, 667, 677, 646, 728, 646, 704, 675, 656, 672, 683, 675, 744],
      "WindowCenter": [353.0, 351.0, 351.0, 352.0, 354.0, 355.0, 357.0, 356.0, 357.0, 357.0, 355.0, 355.0, 355.0, 355.0, 355.0, 355.0, 355.0, 355.0, 355.0, 354.0, 355.0, 355.0, 355.0, 354.0, 353.0, 355.0, 354.0, 355.0, 353.0, 354.0, 354.0, 354.0, 354.0, 354.0, 355.0, 354.0, 354.0, 355.0, 355.0, 355.0, 354.0, 354.0, 353.0, 353.0, 353.0, 354.0, 355.0, 355.0, 353.0, 353.0, 354.0, 354.0, 353.0, 353.0, 354.0, 355.0, 355.0, 354.0, 354.0, 354.0, 355.0, 356.0, 356.0, 355.0, 356.0, 354.0, 354.0, 354.0, 354.0, 354.0, 353.0, 354.0, 354.0, 354.0, 356.0, 355.0, 353.0, 353.0, 353.0, 354.0, 353.0, 354.0, 353.0, 355.0, 354.0, 355.0, 355.0, 355.0, 355.0, 354.0, 353.0, 353.0, 354.0, 354.0, 355.0, 354.0, 354.0, 354.0, 354.0, 355.0, 354.0, 354.0, 355.0, 354.0, 354.0, 354.0, 354.0, 354.0, 355.0, 355.0, 356.0, 356.0, 355.0, 355.0, 355.0, 354.0, 355.0, 355.0, 354.0, 354.0, 354.0, 355.0, 353.0, 354.0, 353.0, 354.0, 354.0, 354.0, 355.0, 354.0, 355.0, 355.0, 355.0, 355.0, 355.0, 353.0, 353.0, 353.0, 353.0, 354.0, 355.0, 356.0, 354.0, 354.0, 354.0, 354.0, 354.0, 355.0, 355.0, 355.0],
      "WindowWidth": [757.0, 755.0, 755.0, 756.0, 759.0, 761.0, 764.0, 763.0, 766.0, 764.0, 762.0, 762.0, 762.0, 761.0, 761.0, 762.0, 761.0, 761.0, 761.0, 760.0, 762.0, 762.0, 761.0, 760.0, 759.0, 762.0, 760.0, 761.0, 759.0, 759.0, 760.0, 760.0, 759.0, 760.0, 762.0, 760.0, 760.0, 761.0, 762.0, 761.0, 760.0, 759.0, 758.0, 759.0, 759.0, 760.0, 761.0, 761.0, 758.0, 758.0, 759.0, 760.0, 759.0, 758.0, 759.0, 761.0, 761.0, 759.0, 759.0, 759.0, 761.0, 763.0, 763.0, 761.0, 762.0, 760.0, 760.0, 759.0, 759.0, 759.0, 758.0, 759.0, 759.0, 760.0, 762.0, 762.0, 759.0, 759.0, 758.0, 760.0, 759.0, 759.0, 759.0, 761.0, 761.0, 761.0, 762.0, 761.0, 761.0, 759.0, 758.0, 758.0, 760.0, 760.0, 761.0, 760.0, 760.0, 760.0, 760.0, 761.0, 760.0, 760.0, 761.0, 760.0, 761.0, 760.0, 760.0, 759.0, 761.0, 762.0, 763.0, 763.0, 762.0, 761.0, 761.0, 760.0, 761.0, 762.0, 760.0, 760.0, 760.0, 761.0, 758.0, 760.0, 759.0, 760.0, 760.0, 760.0, 761.0, 760.0, 762.0, 763.0, 762.0, 761.0, 761.0, 759.0, 759.0, 759.0, 759.0, 761.0, 761.0, 763.0, 760.0, 760.0, 760.0, 760.0, 760.0, 761.0, 761.0, 762.0]
    },
    "slices": {}
  }
}